1.002542060262814630e+03 2.624960774810832231e-01
1.005278246713121916e+03 2.538956010176736111e-01
1.008015523270074482e+03 2.441752887258286098e-01
1.010748095990558795e+03 2.162453965857741578e-01
1.013483689849890652e+03 1.728192603208641154e-01
1.016216512685747148e+03 1.371671713933495240e-01
1.018948495735341567e+03 1.262824907555728515e-01
1.021679639385714836e+03 1.374885082245372869e-01
1.024408016138382663e+03 1.520083025412928002e-01
1.027139410035742912e+03 1.505212623669779926e-01
1.029868037808282679e+03 1.329973284841168835e-01
1.032595827727360302e+03 1.183941582928137587e-01
1.035320854660367331e+03 1.242122294028906448e-01
1.038046970620860520e+03 1.452623983862336432e-01
1.040770325547353423e+03 1.709779422599338738e-01
1.043494769089669717e+03 2.109345399770088669e-01
1.046220299861273816e+03 2.843070661745616401e-01
1.048941148777586932e+03 3.720047226103840310e-01
1.051663085692282039e+03 4.123074275017278856e-01
1.054382266445300047e+03 3.691916686290425687e-01
1.057100613986272947e+03 2.768149507159035072e-01
1.059820048908793979e+03 1.920244813122998773e-01
1.062536730585998157e+03 1.361501371507787550e-01
1.065256418267465051e+03 1.053423068478279573e-01
1.067971435024122911e+03 8.888117950569258963e-02
1.070685620481752267e+03 7.709282136647820083e-02
1.073400892293408106e+03 6.534322318092794513e-02
1.076113415711140988e+03 5.310936698654310228e-02
1.078825108974633622e+03 4.102427139677403134e-02
1.081535972464920633e+03 3.139027857970080881e-02
1.084246006562807452e+03 2.790954996341313624e-02
1.086957125988385087e+03 3.441637510709407571e-02
1.089665501857485651e+03 5.113727636020424377e-02
1.092373049475474545e+03 7.062997006236595987e-02
1.095079769222225877e+03 8.168586571014371800e-02
1.097785661477380927e+03 7.843919367496078598e-02
1.100488815205502760e+03 6.697730123811918013e-02
1.103193054199597100e+03 5.773496459270275466e-02
1.105898377086210530e+03 5.887551304346320957e-02
1.108600963166765723e+03 7.413209851466083522e-02
1.111300814570524381e+03 1.049554457520087691e-01
1.114001750418661686e+03 1.447866785968611458e-01
1.116701861425946845e+03 1.845129695567519490e-01
1.119401147970162128e+03 2.218707410743432085e-01
1.122097703679166443e+03 2.724023033345105427e-01
1.124793436843567179e+03 3.505741002502623660e-01
1.127492159012868797e+03 4.325185890786274467e-01
1.130186247054636624e+03 4.639570108048356456e-01
1.132881418104698241e+03 4.171129370259513691e-01
1.135573863109842932e+03 3.204372222001714565e-01
1.138265487450385990e+03 2.213249292412322877e-01
1.140958194184469903e+03 1.464523966428310786e-01
1.143648177741328254e+03 9.687033949315990156e-02
1.146339243282025564e+03 6.723949767572098835e-02
1.149029488498843421e+03 5.312815035400527547e-02
1.151715113037484116e+03 5.444170132586213101e-02
1.154403719889553031e+03 7.349981856712570205e-02
1.157087709126426489e+03 1.165163144013167673e-01
1.159774679109945282e+03 1.869780984527391332e-01
1.162457034538219887e+03 2.734559815080788714e-01
1.165144266621347924e+03 3.422392289840139878e-01
1.167826886051887413e+03 3.582040069163028306e-01
1.170508689305683220e+03 3.198997232505450539e-01
1.173187781012602500e+03 2.525186695056688135e-01
1.175867953606491938e+03 1.838966952081635131e-01
1.178547311139955127e+03 1.273376590188265711e-01
1.181225853984735295e+03 8.458822171354847541e-02
1.183903582512346475e+03 5.439226658653704971e-02
1.186580497094084421e+03 3.367133745068665723e-02
1.189256598101008422e+03 1.929943785405672033e-02
1.191931885903959483e+03 1.012586786131536298e-02
1.194604469735670136e+03 4.480781978754849390e-03
1.197276242252915836e+03 1.287417654114522431e-03
1.199949093815117521e+03 -2.887002285806732939e-04
1.202621133653930883e+03 4.650979081945018443e-04
1.205290473296619894e+03 3.914796674864306700e-03
1.207960891370978061e+03 1.052659931408632225e-02
1.210628611133863160e+03 2.173155606951708563e-02
1.213295521795975219e+03 3.824215274633319117e-02
1.215963510276946181e+03 6.046381886061010652e-02
1.218628803269442869e+03 8.944758517565948308e-02
1.221293288264867442e+03 1.278728397047692589e-01
1.223958850466671720e+03 1.779418304044980137e-01
1.226623604263149900e+03 2.305372458462616736e-01
1.229285666328829393e+03 2.741334836186835600e-01
1.231946921866088815e+03 3.063884725825919420e-01
1.234605488688888727e+03 3.225871350380615787e-01
1.237265132838660065e+03 3.082130525994687953e-01
1.239925852970998676e+03 2.640383369738100727e-01
1.242583886057127529e+03 2.145682332301025452e-01
1.245241114445001585e+03 1.791688927343157434e-01
1.247897538499990333e+03 1.619846369268218567e-01
1.250553158587237704e+03 1.593545527946217677e-01
1.253206096504734887e+03 1.665144583890133534e-01
1.255860110319401429e+03 1.773714715839348199e-01
1.258513321260190423e+03 1.866075917394333372e-01
1.261165729691365414e+03 1.921425873274581475e-01
1.263817335976971663e+03 1.934417837029280551e-01
1.266468140480832517e+03 1.904695565386695100e-01
1.269116268405348819e+03 1.852611888538975848e-01
1.271765471003098355e+03 1.816209715000794145e-01
1.274411998880717874e+03 1.856681235246681050e-01
1.277059601023993309e+03 1.980930175589212250e-01
1.279704530304443324e+03 2.145254685350424240e-01
1.282350533443121094e+03 2.306240229645417916e-01
1.284995737339901098e+03 2.435502101081989668e-01
1.287638271156589326e+03 2.520332800732503209e-01
1.290280007584889972e+03 2.560087960747063907e-01
1.292920946985668706e+03 2.537089269714712381e-01
1.295561089719572919e+03 2.393352888403328382e-01
1.298200436147035362e+03 2.127732066302810421e-01
1.300840855008114886e+03 1.863367041611313502e-01
1.303478609339792456e+03 1.777138498659918964e-01
1.306115568445267854e+03 1.845748999071310514e-01
1.308751732684100716e+03 1.825128633393388877e-01
1.311387102415639674e+03 1.592336091337072934e-01
1.314019812433205516e+03 1.270144016597203884e-01
1.316653594789360795e+03 1.025325906405880755e-01
1.319288448156661616e+03 8.857339630634158967e-02
1.321920643448127521e+03 8.371508238596032936e-02
1.324552046025772142e+03 8.594000342266520931e-02
1.327180793489540520e+03 9.552671934156918565e-02
1.329810612274250161e+03 1.116048324551645737e-01
1.332439639418382285e+03 1.335881121416136741e-01
1.335066014202413498e+03 1.637472424624740186e-01
1.337693459697402432e+03 2.070122965907497670e-01
1.340320114623114932e+03 2.737191639481745820e-01
1.342944119938296353e+03 3.755597557349674709e-01
1.345569195354786643e+03 4.978346538237137242e-01
1.348191622991234908e+03 5.860771282973193941e-01
1.350813262601019233e+03 5.943277403658741020e-01
1.353435971702954703e+03 5.359839943404376417e-01
1.356056035766770947e+03 4.581424078942251121e-01
1.358677168916776282e+03 3.945142951449541191e-01
1.361297514344554656e+03 3.519991436855180456e-01
1.363913362539642549e+03 3.287141464570497162e-01
1.366532134702392796e+03 3.151929085887448245e-01
1.369146412568312371e+03 3.063251627180565984e-01
1.371763612882496091e+03 3.053100407605005562e-01
1.374376321832860413e+03 3.117000616828091153e-01
1.376991951713243907e+03 3.151196181880504543e-01
1.379604944755552424e+03 3.079020883084864768e-01
1.382217154019621375e+03 2.997528731859087081e-01
1.384828579858050944e+03 3.073108296670933881e-01
1.387439222623219393e+03 3.373743623651301871e-01
1.390047233291621524e+03 3.832158234140393138e-01
1.392656311520928284e+03 4.269137360847625740e-01
1.395264607732602599e+03 4.581979972840082849e-01
1.397872122278185998e+03 4.811238758822223849e-01
1.400478855509001733e+03 5.090900741097805771e-01
1.403084807776172966e+03 5.393710388861905347e-01
1.405688133376919723e+03 5.465872892256107285e-01
1.408292525322165602e+03 5.049865911108470939e-01
1.410894292407003377e+03 4.259597996991239532e-01
1.413495281034647633e+03 3.465772308413320180e-01
1.416097335399321310e+03 2.905374742371831798e-01
1.418698610901890788e+03 2.586257246206818405e-01
1.421297265150598832e+03 2.474530901269604843e-01
1.423895142338646110e+03 2.519941200041982410e-01
1.426492242814521887e+03 2.719811290151265548e-01
1.429090408015701541e+03 3.066666296451998064e-01
1.431685955561624723e+03 3.619082799441465936e-01
1.434282567428403127e+03 4.407010905830485159e-01
1.436876563436810102e+03 5.394744176004520053e-01
1.439467945583532128e+03 6.336268174754489113e-01
1.442060392543709895e+03 6.810197758054830075e-01
1.444652065225553088e+03 6.627482190736884160e-01
1.447244801218170323e+03 6.202141083518707410e-01
1.449834925835093600e+03 6.164161070105128593e-01
1.452422441068283661e+03 7.018389149143127170e-01
1.455012855700431828e+03 8.643298930629778054e-01
1.457600661641052284e+03 1.000000000000000000e+00
1.460185860879282700e+03 9.902721928158011444e-01
1.462772123312297481e+03 8.375068373656452403e-01
1.465355780827590934e+03 6.388357697122608592e-01
1.467940501133532962e+03 4.689055565242330470e-01
1.470522618304621574e+03 3.405742418763223478e-01
1.473107629631289456e+03 2.458008604558753751e-01
1.475688207289585989e+03 1.767883473154386875e-01
1.478269846930583299e+03 1.269304550097451745e-01
1.480847056865495688e+03 9.101537214069908843e-02
1.483427159056987875e+03 6.573607712455968588e-02
1.486004663451447414e+03 4.714641533037556426e-02
1.488581400523878983e+03 3.372377359615240378e-02
1.491159198570356239e+03 2.370674338003404477e-02
1.493736228891451901e+03 1.617092861587314870e-02
1.496310664965098113e+03 1.068046418953046139e-02
1.498884335086360807e+03 6.956373270636495923e-03
